 ******* Program HYDRUS
 ******* 
 Example 2 - test for codes                                              
 
 Units: L = cm   , T = days 


 Time:       91.0000


 Node    Depth      Head Moisture       K          C         Flux        Sink
         [L]       [L]     [-]        [L/T]      [1/L]      [L/T]        [1/T]

   1     0.00     -55.000 0.3331   0.9002E+00  0.0000E+00  0.0000E+00  0.0000E+00
   2    -1.00     -54.000 0.3342   0.9320E+00  0.0000E+00  0.0000E+00  0.0000E+00
   3    -2.00     -53.000 0.3353   0.9639E+00  0.0000E+00  0.0000E+00  0.0000E+00
   4    -4.00     -51.000 0.3375   0.1028E+01  0.0000E+00  0.0000E+00  0.0000E+00
   5    -6.00     -49.000 0.3398   0.1091E+01  0.0000E+00  0.0000E+00  0.0000E+00
   6   -10.00     -45.000 0.3445   0.1274E+01  0.0000E+00  0.0000E+00  0.0000E+00
   7   -15.00     -40.000 0.3506   0.1545E+01  0.0000E+00  0.0000E+00  0.0000E+00
   8   -20.00     -35.000 0.3569   0.1902E+01  0.0000E+00  0.0000E+00  0.0000E+00
   9   -25.00     -30.000 0.3634   0.2338E+01  0.0000E+00  0.0000E+00  0.0000E+00
  10   -30.00     -25.000 0.3700   0.2995E+01  0.0000E+00  0.0000E+00  0.0000E+00
  11   -40.00     -15.000 0.3834   0.5150E+01  0.0000E+00  0.0000E+00  0.0000E+00
  12   -50.00      -5.000 0.3372   0.2900E+02  0.0000E+00  0.0000E+00  0.0000E+00
  13   -60.00       5.000 0.3390   0.4534E+02  0.0000E+00  0.0000E+00  0.0000E+00
  14   -70.00      15.000 0.3390   0.4534E+02  0.0000E+00  0.0000E+00  0.0000E+00
  15   -80.00      25.000 0.3390   0.4534E+02  0.0000E+00  0.0000E+00  0.0000E+00
  16   -90.00      35.000 0.3390   0.4534E+02  0.0000E+00  0.0000E+00  0.0000E+00
  17  -100.00      45.000 0.3390   0.4534E+02  0.0000E+00  0.0000E+00  0.0000E+00
  18  -110.00      55.000 0.3390   0.4534E+02  0.0000E+00  0.0000E+00  0.0000E+00
  19  -120.00      65.000 0.3390   0.4534E+02  0.0000E+00  0.0000E+00  0.0000E+00
  20  -130.00      75.000 0.3390   0.4534E+02  0.0000E+00  0.0000E+00  0.0000E+00
  21  -140.00      85.000 0.3390   0.4534E+02  0.0000E+00  0.0000E+00  0.0000E+00
  22  -150.00      95.000 0.3390   0.4534E+02  0.0000E+00  0.0000E+00  0.0000E+00
  23  -160.00     105.000 0.3390   0.4534E+02  0.0000E+00  0.0000E+00  0.0000E+00
  24  -170.00     115.000 0.3390   0.4534E+02  0.0000E+00  0.0000E+00  0.0000E+00
  25  -180.00     125.000 0.3390   0.4534E+02  0.0000E+00  0.0000E+00  0.0000E+00
  26  -190.00     135.000 0.3390   0.4534E+02  0.0000E+00  0.0000E+00  0.0000E+00
  27  -200.00     145.000 0.3390   0.4534E+02  0.0000E+00  0.0000E+00  0.0000E+00
  28  -210.00     155.000 0.3390   0.4534E+02  0.0000E+00  0.0000E+00  0.0000E+00
  29  -220.00     165.000 0.3390   0.4534E+02  0.0000E+00  0.0000E+00  0.0000E+00
  30  -225.00     170.000 0.3390   0.4534E+02  0.0000E+00  0.0000E+00  0.0000E+00
  31  -228.00     173.000 0.3390   0.4534E+02  0.0000E+00  0.0000E+00  0.0000E+00
  32  -229.00     174.000 0.3390   0.4534E+02  0.0000E+00  0.0000E+00  0.0000E+00
  33  -230.00     175.000 0.3390   0.4534E+02  0.0000E+00  0.0000E+00  0.0000E+00
end


 Time:       92.0000


 Node    Depth      Head Moisture       K          C         Flux        Sink
         [L]       [L]     [-]        [L/T]      [1/L]      [L/T]        [1/T]

   1     0.00     -57.494 0.3303   0.8202E+00  0.0000E+00  0.6190E-06  0.0000E+00
   2    -1.00     -56.496 0.3314   0.8520E+00  0.0000E+00 -0.2935E-02  0.0000E+00
   3    -2.00     -55.501 0.3325   0.8837E+00  0.0000E+00 -0.2561E-02  0.4776E-02
   4    -4.00     -53.505 0.3347   0.9472E+00  0.0000E+00  0.2064E-03  0.4776E-02
   5    -6.00     -51.500 0.3370   0.1011E+01  0.0000E+00  0.5757E-02  0.4776E-02
   6   -10.00     -47.472 0.3415   0.1140E+01  0.0000E+00  0.1160E-01  0.4776E-02
   7   -15.00     -42.414 0.3476   0.1413E+01  0.0000E+00  0.1886E-01  0.4776E-02
   8   -20.00     -37.340 0.3538   0.1698E+01  0.0000E+00  0.2662E-01  0.4776E-02
   9   -25.00     -32.262 0.3604   0.2140E+01  0.0000E+00  0.3409E-01  0.4776E-02
  10   -30.00     -27.183 0.3671   0.2704E+01  0.0000E+00  0.4509E-01  0.4776E-02
  11   -40.00     -17.050 0.3807   0.4590E+01  0.0000E+00  0.3239E-01  0.0000E+00
  12   -50.00      -7.039 0.3360   0.2580E+02  0.0000E+00  0.8045E-02  0.0000E+00
  13   -60.00       2.961 0.3390   0.4534E+02  0.0000E+00  0.0000E+00  0.0000E+00
  14   -70.00      12.961 0.3390   0.4534E+02  0.0000E+00 -0.2162E-05  0.0000E+00
  15   -80.00      22.961 0.3390   0.4534E+02  0.0000E+00 -0.2162E-05  0.0000E+00
  16   -90.00      32.961 0.3390   0.4534E+02  0.0000E+00  0.0000E+00  0.0000E+00
  17  -100.00      42.961 0.3390   0.4534E+02  0.0000E+00  0.0000E+00  0.0000E+00
  18  -110.00      52.961 0.3390   0.4534E+02  0.0000E+00  0.0000E+00  0.0000E+00
  19  -120.00      62.961 0.3390   0.4534E+02  0.0000E+00 -0.8648E-05  0.0000E+00
  20  -130.00      72.961 0.3390   0.4534E+02  0.0000E+00 -0.8648E-05  0.0000E+00
  21  -140.00      82.961 0.3390   0.4534E+02  0.0000E+00  0.0000E+00  0.0000E+00
  22  -150.00      92.961 0.3390   0.4534E+02  0.0000E+00  0.0000E+00  0.0000E+00
  23  -160.00     102.961 0.3390   0.4534E+02  0.0000E+00  0.0000E+00  0.0000E+00
  24  -170.00     112.961 0.3390   0.4534E+02  0.0000E+00  0.0000E+00  0.0000E+00
  25  -180.00     122.961 0.3390   0.4534E+02  0.0000E+00  0.0000E+00  0.0000E+00
  26  -190.00     132.961 0.3390   0.4534E+02  0.0000E+00  0.0000E+00  0.0000E+00
  27  -200.00     142.961 0.3390   0.4534E+02  0.0000E+00  0.0000E+00  0.0000E+00
  28  -210.00     152.961 0.3390   0.4534E+02  0.0000E+00  0.0000E+00  0.0000E+00
  29  -220.00     162.961 0.3390   0.4534E+02  0.0000E+00  0.0000E+00  0.0000E+00
  30  -225.00     167.961 0.3390   0.4534E+02  0.0000E+00  0.0000E+00  0.0000E+00
  31  -228.00     170.961 0.3390   0.4534E+02  0.0000E+00  0.0000E+00  0.0000E+00
  32  -229.00     171.961 0.3390   0.4534E+02  0.0000E+00  0.0000E+00  0.0000E+00
  33  -230.00     172.961 0.3390   0.4534E+02  0.0000E+00  0.0000E+00  0.0000E+00
end


 Time:       91.0000


 Node    Depth      Head Moisture       K          C         Flux        Sink
         [L]       [L]     [-]        [L/T]      [1/L]      [L/T]        [1/T]

   1     0.00     -41.686 0.3486   0.1454E+01  0.0000E+00 -0.1000E+01  0.0000E+00
   2    -1.00     -41.367 0.3490   0.1471E+01  0.0000E+00 -0.9922E+00  0.0000E+00
   3    -2.00     -41.034 0.3494   0.1489E+01  0.0000E+00 -0.9636E+00  0.1672E-01
   4    -4.00     -40.295 0.3503   0.1530E+01  0.0000E+00 -0.9261E+00  0.1672E-01
   5    -6.00     -39.455 0.3513   0.1576E+01  0.0000E+00 -0.8505E+00  0.1672E-01
   6   -10.00     -37.477 0.3537   0.1689E+01  0.0000E+00 -0.7611E+00  0.1672E-01
   7   -15.00     -34.426 0.3576   0.1954E+01  0.0000E+00 -0.6438E+00  0.1672E-01
   8   -20.00     -30.795 0.3623   0.2268E+01  0.0000E+00 -0.5115E+00  0.1672E-01
   9   -25.00     -26.679 0.3678   0.2769E+01  0.0000E+00 -0.3780E+00  0.1672E-01
  10   -30.00     -22.178 0.3738   0.3453E+01  0.0000E+00 -0.1898E+00  0.1388E-01
  11   -40.00     -12.450 0.3866   0.6062E+01  0.0000E+00 -0.8083E-01  0.0000E+00
  12   -50.00      -2.466 0.3384   0.3411E+02  0.0000E+00 -0.1619E-01  0.0000E+00
  13   -60.00       7.534 0.3390   0.4534E+02  0.0000E+00  0.6074E-06  0.0000E+00
  14   -70.00      17.534 0.3390   0.4534E+02  0.0000E+00  0.1081E-05  0.0000E+00
  15   -80.00      27.534 0.3390   0.4534E+02  0.0000E+00  0.4324E-05  0.0000E+00
  16   -90.00      37.534 0.3390   0.4534E+02  0.0000E+00  0.4324E-05  0.0000E+00
  17  -100.00      47.534 0.3390   0.4534E+02  0.0000E+00  0.0000E+00  0.0000E+00
  18  -110.00      57.534 0.3390   0.4534E+02  0.0000E+00  0.0000E+00  0.0000E+00
  19  -120.00      67.534 0.3390   0.4534E+02  0.0000E+00  0.0000E+00  0.0000E+00
  20  -130.00      77.534 0.3390   0.4534E+02  0.0000E+00  0.0000E+00  0.0000E+00
  21  -140.00      87.534 0.3390   0.4534E+02  0.0000E+00  0.0000E+00  0.0000E+00
  22  -150.00      97.534 0.3390   0.4534E+02  0.0000E+00  0.0000E+00  0.0000E+00
  23  -160.00     107.534 0.3390   0.4534E+02  0.0000E+00  0.0000E+00  0.0000E+00
  24  -170.00     117.534 0.3390   0.4534E+02  0.0000E+00  0.0000E+00  0.0000E+00
  25  -180.00     127.534 0.3390   0.4534E+02  0.0000E+00  0.0000E+00  0.0000E+00
  26  -190.00     137.534 0.3390   0.4534E+02  0.0000E+00  0.0000E+00  0.0000E+00
  27  -200.00     147.534 0.3390   0.4534E+02  0.0000E+00  0.0000E+00  0.0000E+00
  28  -210.00     157.534 0.3390   0.4534E+02  0.0000E+00  0.0000E+00  0.0000E+00
  29  -220.00     167.534 0.3390   0.4534E+02  0.0000E+00  0.0000E+00  0.0000E+00
  30  -225.00     172.534 0.3390   0.4534E+02  0.0000E+00  0.0000E+00  0.0000E+00
  31  -228.00     175.534 0.3390   0.4534E+02  0.0000E+00  0.0000E+00  0.0000E+00
  32  -229.00     176.534 0.3390   0.4534E+02  0.0000E+00  0.0000E+00  0.0000E+00
  33  -230.00     177.534 0.3390   0.4534E+02  0.0000E+00  0.0000E+00  0.0000E+00
end
